-40.01
-38.00
-36.01
-34.01
-32.01
-30.01
-28.01
-26.01
-24.01
-22.01
-20.01
-18.01
-16.01
-14.02
-12.02
-10.01
-8.01
-6.01
-4.01
-2.01
-0.02
1.99
3.99
5.98
7.99
9.98
11.98
13.98
15.98
17.98
19.98
21.98
23.98
25.98
27.99
29.99
31.98
33.98
35.98
37.98
39.98
